# t[s], x[m], v[m/s], DE 
0.100000 3.397000 3.970000 0.000879 8.457431 
0.200000 3.790603 3.936030 0.001728 8.464600 
0.300000 4.180416 3.898124 0.002542 8.471479 
0.400000 4.566048 3.856320 0.003319 8.478042 
0.500000 4.947114 3.810659 0.004054 8.484260 
0.600000 5.323232 3.761188 0.004747 8.490108 
0.700000 5.694028 3.707956 0.005392 8.495566 
0.800000 6.059129 3.651016 0.005989 8.500609 
0.900000 6.418172 3.590424 0.006535 8.505219 
1.000000 6.770796 3.526242 0.007027 8.509377 
1.100000 7.116650 3.458534 0.007463 8.513065 
1.200000 7.455387 3.387368 0.007843 8.516271 
1.300000 7.786668 3.312814 0.008163 8.518978 
1.400000 8.110163 3.234947 0.008424 8.521179 
1.500000 8.425548 3.153846 0.008623 8.522863 
1.600000 8.732507 3.069590 0.008760 8.524025 
1.700000 9.030733 2.982265 0.008835 8.524659 
1.800000 9.319929 2.891958 0.008848 8.524764 
1.900000 9.599805 2.798759 0.008797 8.524338 
2.000000 9.870081 2.702760 0.008684 8.523382 
2.100000 10.130486 2.604060 0.008509 8.521901 
2.200000 10.380762 2.502755 0.008272 8.519902 
2.300000 10.620657 2.398947 0.007975 8.517392 
2.400000 10.849931 2.292741 0.007619 8.514380 
2.500000 11.068355 2.184241 0.007205 8.510879 
2.600000 11.275710 2.073558 0.006734 8.506903 
2.700000 11.471790 1.960801 0.006209 8.502468 
2.799999 11.656399 1.846083 0.005632 8.497593 
2.899999 11.829350 1.729519 0.005005 8.492294 
2.999999 11.990473 1.611225 0.004331 8.486595 
3.099999 12.139605 1.491321 0.003612 8.480518 
3.199999 12.276597 1.369925 0.002851 8.474089 
3.299999 12.401313 1.247159 0.002051 8.467330 
3.399999 12.513627 1.123145 0.001216 8.460271 
3.499999 12.613428 0.998009 0.000348 8.452940 
3.599999 12.700616 0.871875 -0.000549 8.445365 
3.699999 12.775103 0.744869 -0.001470 8.437577 
3.799999 12.836814 0.617118 -0.002413 8.429606 
3.899998 12.885689 0.488749 -0.003374 8.421487 
3.999998 12.921678 0.359893 -0.004349 8.413249 
4.099998 12.944745 0.230676 -0.005334 8.404927 
4.199998 12.954868 0.101228 -0.006325 8.396554 
4.299998 12.952036 -0.028320 -0.007318 8.388163 
4.399998 12.936252 -0.157841 -0.008309 8.379787 
4.499998 12.907532 -0.287203 -0.009294 8.371462 
4.599998 12.865904 -0.416279 -0.010270 8.363218 
4.699998 12.811410 -0.544938 -0.011232 8.355090 
4.799998 12.744104 -0.673052 -0.012176 8.347109 
4.899998 12.664055 -0.800493 -0.013100 8.339309 
4.999998 12.571342 -0.927133 -0.013998 8.331719 
5.099998 12.466057 -1.052847 -0.014867 8.324372 
5.199997 12.348306 -1.177507 -0.015705 8.317295 
5.299997 12.218206 -1.300990 -0.016507 8.310516 
5.399997 12.075890 -1.423172 -0.017270 8.304066 
5.499997 11.921496 -1.543931 -0.017992 8.297966 
5.599997 11.755181 -1.663146 -0.018670 8.292242 
5.699997 11.577111 -1.780698 -0.019300 8.286919 
5.799997 11.387465 -1.896469 -0.019880 8.282016 
5.899997 11.186430 -2.010344 -0.020408 8.277553 
5.999997 10.974209 -2.122208 -0.020882 8.273547 
6.099997 10.751014 -2.231951 -0.021300 8.270017 
6.199996 10.517068 -2.339461 -0.021660 8.266973 
6.299996 10.272605 -2.444631 -0.021961 8.264432 
6.399996 10.017869 -2.547357 -0.022201 8.262400 
6.499996 9.753116 -2.647536 -0.022380 8.260887 
6.599996 9.478609 -2.745067 -0.022497 8.259898 
6.699996 9.194624 -2.839853 -0.022552 8.259439 
6.799996 8.901444 -2.931799 -0.022543 8.259510 
6.899996 8.599363 -3.020814 -0.022472 8.260111 
6.999996 8.288683 -3.106807 -0.022338 8.261240 
7.099996 7.969714 -3.189694 -0.022143 8.262892 
7.199996 7.642775 -3.269392 -0.021886 8.265060 
7.299995 7.308193 -3.345819 -0.021570 8.267737 
7.399995 6.966302 -3.418901 -0.021194 8.270911 
7.499995 6.617446 -3.488564 -0.020761 8.274570 
7.599995 6.261972 -3.554739 -0.020272 8.278699 
7.699995 5.900236 -3.617358 -0.019730 8.283280 
7.799995 5.532600 -3.676361 -0.019136 8.288298 
7.899995 5.159431 -3.731687 -0.018493 8.293730 
7.999995 4.781103 -3.783281 -0.017804 8.299555 
8.099995 4.397994 -3.831092 -0.017071 8.305751 
8.199995 4.010487 -3.875072 -0.016297 8.312292 
8.299995 3.618969 -3.915177 -0.015485 8.319152 
8.399996 3.223832 -3.951367 -0.014639 8.326304 
8.499996 2.825472 -3.983605 -0.013761 8.333718 
8.599997 2.424286 -4.011859 -0.012856 8.341366 
8.699997 2.020676 -4.036102 -0.011927 8.349217 
8.799997 1.615045 -4.056309 -0.010977 8.357241 
8.899998 1.207799 -4.072460 -0.010011 8.365403 
8.999998 0.799345 -4.084538 -0.009033 8.373671 
9.099998 0.390092 -4.092531 -0.008046 8.382012 
9.199999 -0.019551 -4.096432 -0.007054 8.390395 
9.299999 -0.429175 -4.096236 -0.006061 8.398786 
9.400000 -0.838369 -4.091945 -0.005071 8.407149 
9.500000 -1.246725 -4.083561 -0.004089 8.415451 
9.600000 -1.653835 -4.071094 -0.003117 8.423660 
9.700001 -2.059290 -4.054555 -0.002160 8.431744 
9.800001 -2.462687 -4.033963 -0.001223 8.439669 
9.900002 -2.863620 -4.009336 -0.000307 8.447404 
10.000002 -3.261690 -3.980700 0.000582 8.454917 
10.100002 -3.656498 -3.948083 0.001441 8.462178 
10.200003 -4.047650 -3.911518 0.002267 8.469160 
10.300003 -4.434754 -3.871041 0.003057 8.475833 
10.400003 -4.817424 -3.826694 0.003807 8.482171 
10.500004 -5.195276 -3.778520 0.004515 8.488150 
10.600004 -5.567933 -3.726567 0.005177 8.493744 
10.700005 -5.935021 -3.670887 0.005791 8.498931 
10.800005 -6.296175 -3.611537 0.006354 8.503692 
10.900005 -6.651032 -3.548575 0.006865 8.508005 
11.000006 -6.999239 -3.482065 0.007320 8.511855 
11.100006 -7.340446 -3.412073 0.007719 8.515227 
11.200006 -7.674313 -3.338668 0.008060 8.518106 
11.300007 -8.000505 -3.261925 0.008341 8.520482 
11.400007 -8.318697 -3.181920 0.008561 8.522343 
11.500008 -8.628571 -3.098733 0.008720 8.523685 
11.600008 -8.929815 -3.012447 0.008817 8.524500 
11.700008 -9.222130 -2.923149 0.008850 8.524784 
11.800009 -9.505222 -2.830928 0.008821 8.524539 
11.900009 -9.778810 -2.735876 0.008729 8.523764 
12.000010 -10.042619 -2.638088 0.008576 8.522463 
12.100010 -10.296385 -2.537661 0.008360 8.520639 
12.200010 -10.539855 -2.434697 0.008083 8.518303 
12.300011 -10.772785 -2.329299 0.007747 8.515461 
12.400011 -10.994943 -2.221571 0.007352 8.512127 
12.500011 -11.206105 -2.111622 0.006901 8.508313 
12.600012 -11.406061 -1.999561 0.006394 8.504033 
12.700012 -11.594611 -1.885500 0.005835 8.499306 
12.800013 -11.771566 -1.769554 0.005225 8.494149 
12.900013 -11.936750 -1.651838 0.004566 8.488585 
13.000013 -12.089997 -1.532471 0.003862 8.482635 
13.100014 -12.231154 -1.411571 0.003115 8.476323 
13.200014 -12.360081 -1.289259 0.002328 8.469674 
13.300014 -12.476646 -1.165658 0.001505 8.462715 
13.400015 -12.580735 -1.040892 0.000648 8.455473 
13.500015 -12.672244 -0.915085 -0.000239 8.447978 
13.600016 -12.751081 -0.788362 -0.001153 8.440260 
13.700016 -12.817165 -0.660851 -0.002089 8.432348 
13.800016 -12.870434 -0.532680 -0.003044 8.424277 
13.900017 -12.910831 -0.403975 -0.004015 8.416077 
14.000017 -12.938318 -0.274867 -0.004996 8.407780 
14.100018 -12.952867 -0.145484 -0.005986 8.399421 
14.200018 -12.954462 -0.015955 -0.006978 8.391032 
14.300018 -12.943103 0.113590 -0.007971 8.382647 
14.400019 -12.918800 0.243021 -0.008959 8.374300 
14.500019 -12.881579 0.372209 -0.009938 8.366024 
14.600019 -12.831477 0.501024 -0.010905 8.357853 
14.700020 -12.768543 0.629339 -0.011856 8.349819 
14.800020 -12.692841 0.757025 -0.012787 8.341953 
14.900021 -12.604445 0.883953 -0.013694 8.334289 
15.000021 -12.503446 1.009998 -0.014573 8.326856 
15.100021 -12.389942 1.135032 -0.015422 8.319682 
15.200022 -12.264049 1.258932 -0.016237 8.312799 
15.300022 -12.125892 1.381572 -0.017014 8.306233 
15.400023 -11.975609 1.502831 -0.017750 8.300011 
15.500023 -11.813350 1.622587 -0.018443 8.294156 
15.600023 -11.639277 1.740721 -0.019090 8.288693 
15.700024 -11.453567 1.857113 -0.019687 8.283645 
15.800024 -11.256402 1.971649 -0.020233 8.279030 
15.900024 -11.047980 2.084213 -0.020726 8.274865 
16.000025 -10.828511 2.194693 -0.021163 8.271172 
16.100025 -10.598213 2.302978 -0.021543 8.267961 
16.200026 -10.357317 2.408960 -0.021864 8.265245 
16.300026 -10.106064 2.512533 -0.022126 8.263038 
16.400026 -9.844705 2.613594 -0.022326 8.261347 
16.500027 -9.573501 2.712041 -0.022464 8.260179 
16.600027 -9.292723 2.807776 -0.022540 8.259538 
16.700027 -9.002652 2.900703 -0.022553 8.259427 
16.800028 -8.703579 2.990730 -0.022503 8.259847 
16.900028 -8.395802 3.077766 -0.022391 8.260796 
17.000029 -8.079630 3.161724 -0.022217 8.262269 
17.100029 -7.755378 3.242520 -0.021981 8.264262 
17.200029 -7.423370 3.320074 -0.021685 8.266766 
17.300030 -7.083940 3.394307 -0.021329 8.269772 
17.400030 -6.737425 3.465147 -0.020915 8.273266 
17.500031 -6.384173 3.532521 -0.020445 8.277236 
17.600031 -6.024537 3.596363 -0.019921 8.281665 
17.700031 -5.658876 3.656608 -0.019345 8.286535 
17.800032 -5.287556 3.713197 -0.018719 8.291827 
17.900032 -4.910949 3.766072 -0.018045 8.297521 
18.000032 -4.529430 3.815182 -0.017326 8.303593 
18.100033 -4.143383 3.860476 -0.016566 8.310019 
18.200033 -3.753192 3.901910 -0.015767 8.316772 
18.300034 -3.359248 3.939442 -0.014932 8.323828 
18.400034 -2.961944 3.973034 -0.014064 8.331156 
18.500034 -2.561679 4.002654 -0.013168 8.338728 
18.600035 -2.158852 4.028270 -0.012247 8.346513 
18.700035 -1.753866 4.049859 -0.011304 8.354480 
18.800035 -1.347126 4.067397 -0.010343 8.362597 
18.900036 -0.939039 4.080868 -0.009369 8.370832 
19.000036 -0.530014 4.090259 -0.008384 8.379153 
19.100037 -0.120458 4.095559 -0.007393 8.387526 
19.200037 0.289219 4.096763 -0.006400 8.395916 
19.300037 0.698606 4.093871 -0.005409 8.404293 
19.400038 1.107294 4.086885 -0.004424 8.412620 
19.500038 1.514876 4.075812 -0.003448 8.420863 
19.600039 1.920942 4.060663 -0.002486 8.428994 
19.700039 2.325087 4.041454 -0.001541 8.436976 
19.800039 2.726907 4.018203 -0.000618 8.444778 
19.900040 3.126001 3.990934 0.000280 8.452370 
20.000040 3.521968 3.959674 0.001150 8.459721 
20.100040 3.914414 3.924454 0.001988 8.466802 
20.200041 4.302945 3.885310 0.002791 8.473583 
20.300041 4.687173 3.842280 0.003555 8.480039 
20.400042 5.066714 3.795409 0.004277 8.486143 
20.500042 5.441188 3.744742 0.004955 8.491872 
20.600042 5.810221 3.690330 0.005586 8.497200 
20.700043 6.173443 3.632228 0.006167 8.502109 
20.800043 6.530493 3.570493 0.006696 8.506577 
20.900043 6.881011 3.505188 0.007170 8.510589 
21.000044 7.224649 3.436378 0.007589 8.514125 
21.100044 7.561063 3.364131 0.007950 8.517174 
21.200045 7.889915 3.288521 0.008251 8.519723 
21.300045 8.210877 3.209622 0.008492 8.521761 
21.400045 8.523628 3.127513 0.008672 8.523280 
21.500046 8.827856 3.042277 0.008790 8.524276 
21.600046 9.123256 2.953998 0.008845 8.524742 
21.700047 9.409533 2.862766 0.008838 8.524678 
21.800047 9.686399 2.768670 0.008767 8.524084 
21.900047 9.953580 2.671806 0.008635 8.522963 
22.000048 10.210807 2.572271 0.008440 8.521317 
22.100048 10.457823 2.470163 0.008184 8.519155 
22.200048 10.694382 2.365584 0.007868 8.516485 
22.300049 10.920246 2.258641 0.007493 8.513317 
22.400049 11.135190 2.149438 0.007061 8.509665 
22.500050 11.338999 2.038086 0.006573 8.505543 
22.600050 11.531468 1.924696 0.006032 8.500966 
22.700050 11.712406 1.809381 0.005438 8.495954 
22.800051 11.881632 1.692257 0.004796 8.490526 
22.900051 12.038976 1.573441 0.004107 8.484705 
23.000051 12.184280 1.453051 0.003374 8.478514 
23.100052 12.317401 1.331208 0.002601 8.471976 
23.200052 12.438205 1.208035 0.001789 8.465120 
23.300053 12.546570 1.083652 0.000944 8.457973 
23.400053 12.642388 0.958187 0.000066 8.450561 
23.500053 12.725565 0.831763 -0.000838 8.442915 
23.600054 12.796016 0.704507 -0.001767 8.435066 
23.700054 12.853670 0.576547 -0.002717 8.427045 
23.800055 12.898471 0.448010 -0.003682 8.418884 
23.900055 12.930373 0.319026 -0.004661 8.410616 
24.000055 12.949346 0.189722 -0.005648 8.402275 
24.100056 12.955368 0.060228 -0.006640 8.393892 
24.200056 12.948436 -0.069325 -0.007633 8.385503 
24.300056 12.928555 -0.198810 -0.008623 8.377139 
24.400057 12.895745 -0.328095 -0.009605 8.368835 
24.500057 12.850040 -0.457053 -0.010577 8.360625 
24.600058 12.791485 -0.585553 -0.011534 8.352540 
24.700058 12.720138 -0.713468 -0.012472 8.344613 
24.800058 12.636070 -0.840669 -0.013387 8.336876 
24.900059 12.539368 -0.967030 -0.014277 8.329361 
25.000059 12.430125 -1.092424 -0.015137 8.322096 
25.100060 12.308453 -1.216725 -0.015963 8.315110 
25.200060 12.174472 -1.339809 -0.016754 8.308433 
25.300060 12.028316 -1.461554 -0.017504 8.302091 
25.400061 11.870132 -1.581837 -0.018212 8.296107 
25.500061 11.700079 -1.700539 -0.018875 8.290508 
25.600061 11.518325 -1.817539 -0.019489 8.285316 
25.700062 11.325052 -1.932723 -0.020053 8.280549 
25.800062 11.120455 -2.045973 -0.020565 8.276229 
25.900063 10.904737 -2.157178 -0.021021 8.272373 
26.000063 10.678115 -2.266225 -0.021421 8.268995 
26.100063 10.440814 -2.373007 -0.021762 8.266110 
26.200064 10.193072 -2.477415 -0.022044 8.263728 
26.300064 9.935138 -2.579345 -0.022265 8.261859 
26.400064 9.667268 -2.678697 -0.022425 8.260511 
26.500065 9.389730 -2.775369 -0.022522 8.259689 
26.600065 9.102804 -2.869267 -0.022556 8.259398 
26.700066 8.806775 -2.960295 -0.022528 8.259637 
26.800066 8.501939 -3.048362 -0.022437 8.260406 
26.900066 8.188601 -3.133382 -0.022284 8.261700 
27.000067 7.867074 -3.215268 -0.022069 8.263516 
27.100067 7.537680 -3.293939 -0.021793 8.265846 
27.200068 7.200748 -3.369315 -0.021458 8.268682 
27.300068 6.856616 -3.441323 -0.021064 8.272010 
27.400068 6.505627 -3.509889 -0.020613 8.275819 
27.500069 6.148132 -3.574945 -0.020107 8.280093 
27.600069 5.784490 -3.636426 -0.019549 8.284815 
27.700069 5.415062 -3.694271 -0.018939 8.289966 
27.800070 5.040220 -3.748422 -0.018281 8.295525 
27.900070 4.660338 -3.798824 -0.017578 8.301470 
28.000071 4.275795 -3.845428 -0.016831 8.307777 
28.100071 3.886976 -3.888186 -0.016045 8.314423 
28.200071 3.494271 -3.927055 -0.015221 8.321379 
28.300072 3.098071 -3.961998 -0.014365 8.328616 
28.400072 2.698773 -3.992979 -0.013478 8.336109 
28.500072 2.296777 -4.019967 -0.012565 8.343825 
28.600073 1.892483 -4.042934 -0.011629 8.351734 
28.700073 1.486297 -4.061859 -0.010674 8.359804 
28.800074 1.078625 -4.076722 -0.009704 8.368003 
28.900074 0.669874 -4.087508 -0.008722 8.376298 
29.000074 0.260454 -4.094207 -0.007733 8.384657 
29.100075 -0.149227 -4.096811 -0.006740 8.393044 
29.200075 -0.558759 -4.095319 -0.005748 8.401428 
29.300076 -0.967732 -4.089731 -0.004760 8.409776 
29.400076 -1.375738 -4.080054 -0.003781 8.418053 
29.500076 -1.782367 -4.066297 -0.002814 8.426226 
29.600077 -2.187215 -4.048473 -0.001863 8.434261 
29.700077 -2.589875 -4.026601 -0.000931 8.442130 
29.800077 -2.989945 -4.000702 -0.000024 8.449797 
29.900078 -3.387025 -3.970803 0.000856 8.457233 
30.000078 -3.780719 -3.936932 0.001705 8.464410 
30.100079 -4.170631 -3.899125 0.002520 8.471296 
30.200079 -4.556373 -3.857419 0.003298 8.477866 
30.300079 -4.937558 -3.811855 0.004035 8.484094 
30.400080 -5.313806 -3.762480 0.004728 8.489953 
30.500080 -5.684740 -3.709342 0.005375 8.495420 
30.600080 -6.049990 -3.652494 0.005974 8.500476 
30.700081 -6.409189 -3.591994 0.006520 8.505096 
30.800081 -6.761980 -3.527902 0.007014 8.509266 
30.900082 -7.108008 -3.460283 0.007452 8.512966 
31.000082 -7.446928 -3.389203 0.007832 8.516184 
31.100082 -7.778401 -3.314733 0.008154 8.518905 
31.200083 -8.102097 -3.236949 0.008416 8.521118 
31.300083 -8.417689 -3.155928 0.008617 8.522816 
31.400084 -8.724864 -3.071751 0.008756 8.523991 
31.500084 -9.023314 -2.984503 0.008833 8.524639 
31.600084 -9.312741 -2.894270 0.008847 8.524756 
31.700085 -9.592855 -2.801142 0.008798 8.524343 
31.800085 -9.863377 -2.705214 0.008686 8.523400 
31.900085 -10.124035 -2.606580 0.008513 8.521934 
32.000084 -10.374569 -2.505339 0.008278 8.519947 
32.100082 -10.614728 -2.401594 0.007982 8.517448 
32.200081 -10.844273 -2.295446 0.007627 8.514449 
32.300079 -11.062973 -2.187004 0.007214 8.510962 
32.400078 -11.270611 -2.076374 0.006745 8.506998 
32.500076 -11.466977 -1.963668 0.006222 8.502574 
32.600075 -11.651876 -1.848998 0.005646 8.497708 
32.700073 -11.825125 -1.732479 0.005020 8.492421 
32.800072 -11.986547 -1.614228 0.004347 8.486732 
32.900070 -12.135983 -1.494363 0.003629 8.480664 
33.000069 -12.273284 -1.373003 0.002869 8.474243 
33.100067 -12.398311 -1.250270 0.002070 8.467493 
33.200066 -12.510940 -1.126287 0.001236 8.460442 
33.300064 -12.611057 -1.001177 0.000369 8.453116 
33.400063 -12.698564 -0.875067 -0.000527 8.445547 
33.500061 -12.773372 -0.748081 -0.001448 8.437764 
33.600060 -12.835406 -0.620347 -0.002391 8.429798 
33.700058 -12.884605 -0.491993 -0.003351 8.421681 
33.800056 -12.920920 -0.363147 -0.004326 8.413447 
33.900055 -12.944314 -0.233938 -0.005310 8.405127 
34.000053 -12.954763 -0.104495 -0.006301 8.396754 
34.100052 -12.952258 0.025053 -0.007294 8.388364 
34.200050 -12.936801 0.154575 -0.008285 8.379988 
34.300049 -12.908406 0.283943 -0.009271 8.371659 
34.400047 -12.867104 0.413027 -0.010247 8.363414 
34.500046 -12.812934 0.541698 -0.011209 8.355283 
34.600044 -12.745951 0.669828 -0.012154 8.347298 
34.700043 -12.666222 0.797287 -0.013078 8.339492 
34.800041 -12.573827 0.923950 -0.013977 8.331898 
34.900040 -12.468858 1.049688 -0.014847 8.324543 
35.000038 -12.351420 1.174376 -0.015685 8.317459 
35.100037 -12.221631 1.297891 -0.016488 8.310674 
35.200035 -12.079620 1.420107 -0.017253 8.304214 
35.300034 -11.925530 1.540903 -0.017976 8.298105 
35.400032 -11.759515 1.660159 -0.018654 8.292373 
35.500031 -11.581739 1.777754 -0.019285 8.287039 
35.600029 -11.392383 1.893571 -0.019867 8.282125 
35.700027 -11.191633 2.007495 -0.020396 8.277651 
35.800026 -10.979692 2.119411 -0.020872 8.273634 
35.900024 -10.756772 2.229208 -0.021291 8.270092 
36.000023 -10.523094 2.336776 -0.021652 8.267036 
36.100021 -10.278893 2.442007 -0.021955 8.264482 
36.200020 -10.024414 2.544796 -0.022197 8.262437 
36.300018 -9.759910 2.645040 -0.022377 8.260910 
36.400017 -9.485645 2.742639 -0.022496 8.259908 
36.500015 -9.201896 2.837496 -0.022552 8.259435 
36.600014 -8.908944 2.929514 -0.022545 8.259492 
36.700012 -8.607083 3.018604 -0.022476 8.260078 
36.800011 -8.296616 3.104675 -0.022344 8.261193 
36.900009 -7.977851 3.187641 -0.022150 8.262833 
37.000008 -7.651110 3.267419 -0.021895 8.264988 
37.100006 -7.316717 3.343930 -0.021580 8.267652 
37.200005 -6.975007 3.417097 -0.021206 8.270813 
37.300003 -6.626322 3.486847 -0.020774 8.274460 
37.400002 -6.271011 3.553111 -0.020287 8.278577 
37.500000 -5.909429 3.615821 -0.019746 8.283147 
37.599998 -5.541938 3.674915 -0.019153 8.288154 
37.699997 -5.168904 3.730334 -0.018512 8.293575 
37.799995 -4.790702 3.782023 -0.017823 8.299392 
37.899994 -4.407709 3.829931 -0.017091 8.305579 
37.999992 -4.020308 3.874008 -0.016318 8.312112 
38.099991 -3.628887 3.914211 -0.015507 8.318964 
38.199989 -3.233837 3.950500 -0.014662 8.326109 
38.299988 -2.835553 3.982838 -0.013785 8.333518 
38.399986 -2.434434 4.011194 -0.012880 8.341161 
38.499985 -2.030880 4.035538 -0.011952 8.349008 
38.599983 -1.625295 4.055847 -0.011003 8.357027 
38.699982 -1.218085 4.072100 -0.010037 8.365187 
38.799980 -0.809657 4.084281 -0.009059 8.373453 
38.899979 -0.400419 4.092378 -0.008072 8.381794 
38.999977 0.009219 4.096382 -0.007080 8.390176 
39.099976 0.418848 4.096290 -0.006087 8.398566 
39.199974 0.828058 4.092101 -0.005097 8.406930 
39.299973 1.236440 4.083820 -0.004114 8.415234 
39.399971 1.643585 4.071456 -0.003142 8.423446 
39.499969 2.049088 4.055020 -0.002185 8.431533 
39.599968 2.452540 4.034530 -0.001247 8.439463 
39.699966 2.853541 4.010004 -0.000331 8.447201 
39.799965 3.251688 3.981469 0.000559 8.454720 
39.899963 3.646583 3.948952 0.001419 8.461988 
39.999962 4.037831 3.912486 0.002246 8.468977 
40.099960 4.425042 3.872108 0.003037 8.475658 
40.199959 4.807828 3.827857 0.003788 8.482005 
40.299957 5.185806 3.779779 0.004496 8.487992 
40.399956 5.558598 3.727921 0.005159 8.493597 
40.499954 5.925831 3.672335 0.005775 8.498795 
40.599953 6.287139 3.613076 0.006339 8.503567 
40.699951 6.642159 3.550205 0.006851 8.507892 
40.799950 6.990538 3.483783 0.007308 8.511755 
40.899948 7.331925 3.413878 0.007709 8.515139 
